Sample	2mm tape 
date	07/01/2025
	
Temperature (K)	77.00
Angle (deg.)	0.000000
field / T	0.000000
	
		
Approx. trace time (s)	120.0	
		
Current / A	V1  -sample/ uV	time/s
-0.016098	0.796076	0.000000
-0.016025	0.800874	0.352000
-0.015932	0.810319	0.398000
-0.015963	0.838493	0.576000
-0.016736	0.847679	0.622000
-0.015711	0.852970	0.668000
-0.016147	0.857607	0.714000
-0.000234	0.862485	0.760000
0.023733	0.868956	0.806000
0.048888	0.874098	0.851000
0.074520	0.879720	0.897000
0.099721	0.888060	0.943000
0.125260	0.894399	0.990000
0.148247	0.900250	1.035000
0.235423	0.913406	1.081000
0.259884	0.912816	1.240000
0.284428	0.914543	1.286000
0.310838	0.917440	1.333000
0.335690	0.919498	1.379000
0.360905	0.922766	1.425000
0.386096	0.925187	1.472000
0.586109	0.927049	1.518000
0.611542	0.932709	1.888000
0.636819	0.932729	1.934000
0.661414	0.933040	1.981000
0.686108	0.931884	2.027000
0.710882	0.931874	2.073000
0.735806	0.932474	2.119000
0.830279	0.930738	2.165000
0.855650	0.927300	2.340000
0.881222	0.923932	2.386000
0.905806	0.923391	2.432000
0.931173	0.922125	2.478000
0.955615	0.920969	2.524000
0.980422	0.918927	2.571000
1.066083	0.915238	2.617000
1.090741	0.909759	2.776000
1.116131	0.907306	2.821000
1.141113	0.904434	2.867000
1.166584	0.901486	2.913000
1.191327	0.897827	2.959000
1.215985	0.895565	3.004000
1.240258	0.893454	3.051000
1.265008	0.892743	3.097000
1.289855	0.891486	3.142000
1.314779	0.890126	3.189000
1.340539	0.888639	3.235000
1.426309	0.886292	3.282000
1.451930	0.884717	3.440000
1.476637	0.883843	3.486000
1.501438	0.885971	3.532000
1.525592	0.885047	3.578000
1.550374	0.884937	3.624000
1.575650	0.884577	3.670000
1.661981	0.885286	3.715000
1.687661	0.890430	3.876000
1.712447	0.893324	3.922000
1.737835	0.894974	3.969000
1.762956	0.896971	4.015000
1.787527	0.900139	4.061000
1.812575	0.901166	4.106000
1.836554	0.902331	4.153000
1.862213	0.903708	4.199000
1.887214	0.905880	4.246000
1.912742	0.907186	4.292000
1.937838	0.910059	4.339000
2.022993	0.917690	4.385000
2.047425	0.914823	4.541000
2.072081	0.917550	4.586000
2.096899	0.918131	4.633000
2.121940	0.919953	4.679000
2.147265	0.921819	4.725000
2.172530	0.923831	4.771000
2.258042	0.926233	4.818000
2.283718	0.933896	4.976000
2.308453	0.935372	5.022000
2.333853	0.936758	5.069000
2.357886	0.938274	5.114000
2.382714	0.939351	5.161000
2.407843	0.941012	5.207000
2.433211	0.942319	5.254000
2.458183	0.943795	5.300000
2.483295	0.944991	5.345000
2.508373	0.945707	5.391000
2.533386	0.947804	5.438000
2.732557	0.955016	5.484000
2.757598	0.949566	5.852000
2.853895	0.949756	5.899000
2.879194	0.947664	6.075000
2.903092	0.948139	6.122000
2.928092	0.948270	6.168000
2.952959	0.949155	6.213000
2.978297	0.950156	6.260000
3.003034	0.951113	6.306000
3.028658	0.952158	6.352000
3.053432	0.952098	6.398000
3.078302	0.952954	6.444000
3.102769	0.952914	6.490000
3.127837	0.956833	6.537000
3.213433	0.966777	6.583000
3.238108	0.967568	6.740000
3.263510	0.971791	6.786000
3.288267	0.974745	6.832000
3.313212	0.976906	6.878000
3.337967	0.980034	6.924000
3.362300	0.983603	6.970000
3.564996	0.984868	7.017000
3.589253	1.005378	7.388000
3.613751	1.009542	7.434000
3.638373	1.012545	7.480000
3.663842	1.015533	7.526000
3.688952	1.018951	7.572000
3.714128	1.021573	7.619000
3.809054	1.034099	7.665000
3.833826	1.033254	7.840000
3.859514	1.035937	7.886000
3.884141	1.037143	7.931000
3.908410	1.041787	7.979000
3.933265	1.043979	8.024000
3.958510	1.046997	8.070000
4.044675	1.050330	8.117000
4.069946	1.062295	8.276000
4.095281	1.065944	8.322000
4.119901	1.069903	8.368000
4.145436	1.073451	8.414000
4.169502	1.081944	8.460000
4.194215	1.081954	8.505000
4.219458	1.089726	8.552000
4.244472	1.097273	8.599000
4.269295	1.107644	8.644000
4.294875	1.114001	8.691000
4.319735	1.119029	8.736000
4.404743	1.135370	8.783000
4.429388	1.138488	8.939000
4.454236	1.144191	8.986000
4.478865	1.150987	9.032000
4.504338	1.157592	9.079000
4.529677	1.164789	9.124000
4.555331	1.173440	9.171000
4.640990	1.179965	9.217000
4.666148	1.203507	9.376000
4.691087	1.212378	9.422000
4.715409	1.219124	9.468000
4.739658	1.225655	9.514000
4.764849	1.232851	9.560000
4.790308	1.239508	9.606000
4.815369	1.247018	9.653000
4.840114	1.252675	9.699000
4.865647	1.259011	9.745000
4.890746	1.265612	9.791000
4.915702	1.273803	9.837000
4.999389	1.299953	9.883000
5.024857	1.302632	10.040000
5.049976	1.307809	10.086000
5.075003	1.312801	10.132000
5.100225	1.318261	10.178000
5.125337	1.322565	10.224000
5.150166	1.327630	10.270000
5.236604	1.332950	10.316000
5.261183	1.350371	10.476000
5.285565	1.352348	10.522000
5.310678	1.356176	10.568000
5.335876	1.358783	10.613000
5.361061	1.361116	10.660000
5.386429	1.363113	10.706000
5.411014	1.366501	10.752000
5.436410	1.367997	10.799000
5.461051	1.369349	10.845000
5.485549	1.372322	10.891000
5.510488	1.373307	10.937000
5.710064	1.398821	10.983000
5.735550	1.396264	11.352000
5.831362	1.398436	11.398000
5.857039	1.404246	11.576000
5.881776	1.404056	11.622000
5.907323	1.406298	11.668000
5.932112	1.409606	11.714000
5.957830	1.410672	11.761000
5.983155	1.413545	11.807000
6.008324	1.415656	11.854000
6.033215	1.418844	11.901000
6.057246	1.422293	11.947000
6.082318	1.425832	11.993000
6.107528	1.431422	12.039000
6.192176	1.446531	12.085000
6.217318	1.449184	12.241000
6.242556	1.453427	12.287000
6.266706	1.459148	12.333000
6.291223	1.464638	12.379000
6.316545	1.470759	12.425000
6.341674	1.475834	12.471000
6.542218	1.479242	12.517000
6.567122	1.522062	12.888000
6.592267	1.526213	12.934000
6.617825	1.532115	12.980000
6.642654	1.536942	13.026000
6.667825	1.541092	13.073000
6.692750	1.545396	13.119000
6.787478	1.564115	13.164000
6.812248	1.566263	13.340000
6.836514	1.574354	13.386000
6.861607	1.580245	13.432000
6.886448	1.585732	13.478000
6.911700	1.590550	13.522000
6.936823	1.597566	13.570000
7.023584	1.605147	13.615000
7.048610	1.626756	13.776000
7.074200	1.633061	13.822000
7.098775	1.640152	13.869000
7.123622	1.645169	13.915000
7.148399	1.649947	13.962000
7.173407	1.655558	14.008000
7.198615	1.659261	14.054000
7.223613	1.664923	14.100000
7.248927	1.669416	14.146000
7.273589	1.673834	14.191000
7.298591	1.678891	14.237000
7.382354	1.700775	14.284000
7.407208	1.701879	14.440000
7.432599	1.706785	14.486000
7.457403	1.713861	14.532000
7.483359	1.717504	14.578000
7.508408	1.722081	14.624000
7.533314	1.727384	14.669000
7.620023	1.732945	14.717000
7.644528	1.750176	14.876000
7.668821	1.754429	14.922000
7.694244	1.759254	14.968000
7.719137	1.764118	15.013000
7.744568	1.768763	15.060000
7.769628	1.772691	15.106000
7.795009	1.776766	15.152000
7.819134	1.779358	15.198000
7.843701	1.783357	15.244000
7.868722	1.783811	15.290000
7.893919	1.787620	15.337000
7.979151	1.800918	15.383000
8.004153	1.800257	15.540000
8.029264	1.803090	15.586000
8.054784	1.807083	15.632000
8.079773	1.810347	15.679000
8.103783	1.812589	15.724000
8.128085	1.814210	15.770000
8.214604	1.815957	15.816000
8.240122	1.820421	15.976000
8.265404	1.820551	16.022000
8.290533	1.823609	16.068000
8.315957	1.825606	16.115000
8.340891	1.828129	16.161000
8.366318	1.829274	16.207000
8.390632	1.830581	16.254000
8.415613	1.831035	16.300000
8.439988	1.833248	16.346000
8.465530	1.834193	16.391000
8.490809	1.832582	16.438000
8.689538	1.846235	16.484000
8.715131	1.843457	16.852000
8.810861	1.846084	16.898000
8.836286	1.851014	17.076000
8.861271	1.852661	17.122000
8.886124	1.852661	17.169000
8.911518	1.853427	17.215000
8.935654	1.854118	17.260000
8.960862	1.856019	17.307000
8.985433	1.855929	17.353000
9.010967	1.857085	17.399000
9.035942	1.859137	17.445000
9.060706	1.859017	17.491000
9.086026	1.858802	17.536000
9.170458	1.852782	17.583000
9.195545	1.848827	17.740000
9.220221	1.846555	17.787000
9.245699	1.846224	17.832000
9.270882	1.845499	17.879000
9.295533	1.843813	17.924000
9.320927	1.843196	17.971000
9.521566	1.842301	18.016000
9.547223	1.836936	18.388000
9.572084	1.834233	18.434000
9.597717	1.832102	18.481000
9.622021	1.831776	18.526000
9.646156	1.831696	18.572000
9.671140	1.829084	18.619000
9.765761	1.822318	18.665000
9.791159	1.815857	18.840000
9.816244	1.812369	18.886000
9.841677	1.809916	18.932000
9.866734	1.807663	18.979000
9.891804	1.805822	19.024000
9.916425	1.804597	19.071000
10.002299	1.801603	19.117000
10.027257	1.795452	19.276000
10.051865	1.791128	19.322000
10.076806	1.785789	19.368000
10.102095	1.782260	19.414000
10.127142	1.777446	19.460000
10.152070	1.773517	19.506000
10.176998	1.768713	19.551000
10.201505	1.762512	19.597000
10.225887	1.756346	19.644000
10.251295	1.750115	19.689000
10.276267	1.743360	19.736000
10.361624	1.722101	19.782000
10.387401	1.714205	19.940000
10.412635	1.707720	19.986000
10.437795	1.702197	20.033000
10.462701	1.695877	20.079000
10.487555	1.691099	20.125000
10.512039	1.686071	20.171000
10.597430	1.681554	20.217000
10.622890	1.673384	20.376000
10.647722	1.672490	20.422000
10.673166	1.670570	20.468000
10.697966	1.670610	20.514000
10.723341	1.671724	20.560000
10.748201	1.671445	20.606000
10.773549	1.671544	20.653000
10.797771	1.670111	20.699000
10.822504	1.670061	20.745000
10.847832	1.668346	20.791000
10.873263	1.666027	20.838000
10.958221	1.664707	20.884000
10.982829	1.660396	21.039000
11.007695	1.658347	21.086000
11.032460	1.656567	21.132000
11.057057	1.655213	21.179000
11.082234	1.652974	21.224000
11.106938	1.649917	21.270000
11.194069	1.647818	21.316000
11.219405	1.639698	21.476000
11.244723	1.638464	21.522000
11.269728	1.635965	21.568000
11.294527	1.631656	21.615000
11.318865	1.628123	21.660000
11.343804	1.621907	21.707000
11.368601	1.616970	21.753000
11.393603	1.614126	21.800000
11.418999	1.608254	21.846000
11.443707	1.603218	21.891000
11.469330	1.598030	21.938000
11.668666	1.560371	21.985000
11.694177	1.549592	22.353000
11.790070	1.544784	22.399000
11.815077	1.517297	22.576000
11.839772	1.512102	22.622000
11.864340	1.506361	22.668000
11.889397	1.502963	22.714000
11.914055	1.495316	22.761000
11.939314	1.489565	22.807000
11.964851	1.482769	22.853000
11.989813	1.476959	22.899000
12.015249	1.474066	22.945000
12.039802	1.467831	22.991000
12.063994	1.464343	23.038000
12.148742	1.447156	23.083000
12.173898	1.439154	23.240000
12.199069	1.433534	23.286000
12.224354	1.432077	23.333000
12.249901	1.427583	23.379000
12.274621	1.423354	23.425000
12.299663	1.417819	23.470000
12.500697	1.411423	23.517000
12.525630	1.365710	23.889000
12.550482	1.360390	23.935000
12.574862	1.355266	23.980000
12.599594	1.350661	24.027000
12.625049	1.347413	24.073000
12.650234	1.340882	24.119000
12.744364	1.325582	24.165000
12.770037	1.320393	24.340000
12.794772	1.318656	24.386000
12.820281	1.316163	24.433000
12.845160	1.312671	24.479000
12.869376	1.308574	24.524000
12.894322	1.306494	24.570000
12.980403	1.301378	24.617000
13.005700	1.289715	24.776000
13.030364	1.286442	24.822000
13.055921	1.284372	24.868000
13.081325	1.282618	24.914000
13.106100	1.281314	24.961000
13.130752	1.278111	25.006000
13.154981	1.274678	25.052000
13.179860	1.271504	25.098000
13.204788	1.267622	25.144000
13.230244	1.263849	25.190000
13.255702	1.259761	25.236000
13.340772	1.257192	25.282000
13.366176	1.252949	25.441000
13.390777	1.253250	25.487000
13.415656	1.254073	25.533000
13.440083	1.252969	25.579000
13.464961	1.254073	25.625000
13.490307	1.254754	25.670000
13.576415	1.254843	25.717000
13.602290	1.253460	25.876000
13.627265	1.253779	25.923000
13.652559	1.253769	25.969000
13.677431	1.256037	26.015000
13.701925	1.255248	26.061000
13.726245	1.255888	26.107000
13.751385	1.255158	26.153000
13.776464	1.252326	26.198000
13.801638	1.251875	26.244000
13.826538	1.249526	26.291000
13.851777	1.248117	26.337000
13.936924	1.243011	26.383000
13.961214	1.236779	26.540000
13.985449	1.234630	26.586000
14.010438	1.232721	26.632000
14.035800	1.231476	26.678000
14.060898	1.229128	26.724000
14.086058	1.227474	26.770000
14.172753	1.224081	26.816000
14.197872	1.224410	26.976000
14.222286	1.222757	27.022000
14.246470	1.223007	27.067000
14.271243	1.222406	27.114000
14.296661	1.224745	27.160000
14.321855	1.227014	27.205000
14.347027	1.231007	27.252000
14.372603	1.235815	27.299000
14.397098	1.241636	27.344000
14.422408	1.251560	27.391000
14.446450	1.259975	27.436000
14.646897	1.382856	27.483000
14.671431	1.398045	27.852000
14.767972	1.419615	27.898000
14.792343	1.493194	28.076000
14.817626	1.511426	28.122000
14.842840	1.531261	28.168000
14.868046	1.550816	28.215000
14.893189	1.566822	28.261000
14.918077	1.581740	28.307000
14.943625	1.593881	28.353000
14.968468	1.606631	28.399000
14.993739	1.619009	28.446000
15.018364	1.630123	28.491000
15.043689	1.638033	28.538000
15.128527	1.657512	28.584000
15.153680	1.659321	28.740000
15.179054	1.662139	28.787000
15.204116	1.665173	28.833000
15.229415	1.664748	28.880000
15.254280	1.663989	28.926000
15.278214	1.660175	28.972000
15.479648	1.659141	29.018000
15.503883	1.628003	29.388000
15.529282	1.622327	29.434000
15.554098	1.614661	29.480000
15.579517	1.610443	29.526000
15.604651	1.604262	29.573000
15.629710	1.596142	29.619000
15.724283	1.569505	29.665000
15.749560	1.561111	29.840000
15.774812	1.554640	29.887000
15.798815	1.549592	29.933000
15.824071	1.544664	29.979000
15.848992	1.539433	30.025000
15.874428	1.535185	30.071000
15.960034	1.533249	30.118000
15.985284	1.527568	30.276000
16.010555	1.524914	30.322000
16.035119	1.524103	30.368000
16.059452	1.521881	30.414000
16.084091	1.521320	30.459000
16.109531	1.522372	30.506000
16.134476	1.522667	30.553000
16.159764	1.523688	30.599000
16.185202	1.524473	30.645000
16.210056	1.526324	30.691000
16.235189	1.526584	30.736000
16.319620	1.538289	30.782000
16.344509	1.539033	30.940000
16.369367	1.542656	30.987000
16.394422	1.546697	31.032000
16.420137	1.552321	31.079000
16.444985	1.557029	31.125000
16.470070	1.562660	31.171000
16.556017	1.568136	31.217000
16.581369	1.585233	31.376000
16.605301	1.591195	31.422000
16.630166	1.595722	31.468000
16.655161	1.603366	31.514000
16.680476	1.606421	31.560000
16.705833	1.613718	31.607000
16.731110	1.616830	31.653000
16.756334	1.619069	31.698000
16.781361	1.621437	31.746000
16.806719	1.624167	31.792000
16.830970	1.627054	31.838000
16.915199	1.633315	31.884000
16.940345	1.631267	32.040000
16.965509	1.632291	32.087000
16.991431	1.634134	32.133000
17.016489	1.634510	32.179000
17.041748	1.636678	32.226000
17.066736	1.636293	32.272000
17.151283	1.638233	32.318000
17.176598	1.642580	32.476000
17.201754	1.643685	32.523000
17.226547	1.643499	32.569000
17.251370	1.642810	32.615000
17.277011	1.645943	32.661000
17.302179	1.646932	32.706000
17.327094	1.648902	32.753000
17.351410	1.649113	32.798000
17.376063	1.651041	32.845000
17.400356	1.652295	32.891000
17.425686	1.652356	32.937000
17.625789	1.648461	32.983000
17.651192	1.644344	33.352000
17.747083	1.644798	33.399000
17.772249	1.638721	33.576000
17.797554	1.635984	33.622000
17.822911	1.635030	33.668000
17.847754	1.632689	33.715000
17.873549	1.629752	33.761000
17.897948	1.628122	33.807000
17.922841	1.624565	33.854000
17.947481	1.621577	33.900000
17.972455	1.615605	33.946000
17.997485	1.611707	33.992000
18.023313	1.607454	34.039000
18.107781	1.597364	34.085000
18.132835	1.589790	34.240000
18.157205	1.585531	34.286000
18.181598	1.582248	34.332000
18.206533	1.577381	34.379000
18.231800	1.575468	34.424000
18.256714	1.569896	34.471000
18.457715	1.566093	34.517000
18.482742	1.537955	34.888000
18.507596	1.533559	34.934000
18.533218	1.527877	34.980000
18.557870	1.522151	35.025000
18.582715	1.518092	35.071000
18.606457	1.512767	35.117000
18.702293	1.501367	35.163000
18.726878	1.494380	35.340000
18.752842	1.490057	35.387000
18.778007	1.486849	35.433000
18.802892	1.484851	35.478000
18.828328	1.480377	35.525000
18.852967	1.477565	35.571000
18.939437	1.474998	35.616000
18.964133	1.468166	35.776000
18.988628	1.465398	35.822000
19.012904	1.465408	35.868000
19.038551	1.463297	35.914000
19.062917	1.462020	35.960000
19.088133	1.460283	36.006000
19.113801	1.459658	36.052000
19.138500	1.457600	36.098000
19.164061	1.454894	36.144000
19.188225	1.454303	36.190000
19.212791	1.452121	36.237000
19.298252	1.452662	36.283000
19.323262	1.446211	36.441000
19.348871	1.445345	36.486000
19.373729	1.443273	36.533000
19.398815	1.444339	36.579000
19.423360	1.443998	36.624000
19.447638	1.443778	36.670000
19.533948	1.444944	36.716000
19.558681	1.443263	36.876000
19.584490	1.443958	36.922000
19.609317	1.443518	36.969000
19.634645	1.444774	37.014000
19.660058	1.443798	37.061000
19.685427	1.446751	37.107000
19.710139	1.448192	37.153000
19.734233	1.449869	37.200000
19.758920	1.454173	37.245000
19.783581	1.454683	37.291000
19.808966	1.457932	37.337000
19.894319	1.466919	37.384000
19.919725	1.466564	37.540000
19.944915	1.467840	37.587000
19.969366	1.470507	37.633000
19.993799	1.471138	37.679000
20.018313	1.471684	37.724000
20.043309	1.472225	37.770000
20.129923	1.472185	37.816000
20.155292	1.475333	37.976000
20.180357	1.475182	38.022000
20.205805	1.476909	38.069000
20.230983	1.477259	38.115000
20.256054	1.477754	38.162000
20.280989	1.476959	38.208000
20.305912	1.476859	38.254000
20.330828	1.476223	38.301000
20.355386	1.475342	38.347000
20.380936	1.473661	38.393000
20.406124	1.473380	38.439000
20.604962	1.472930	38.484000
20.630623	1.467701	38.853000
20.725919	1.469107	38.898000
20.751161	1.470133	39.076000
20.776150	1.472435	39.122000
20.800906	1.471099	39.168000
20.825166	1.470918	39.214000
20.849855	1.468617	39.259000
20.875454	1.468997	39.306000
20.900418	1.468597	39.353000
20.926029	1.467500	39.399000
20.951294	1.466955	39.445000
20.976488	1.465288	39.491000
21.001238	1.466970	39.537000
21.085038	1.466989	39.584000
21.109967	1.464222	39.740000
21.134663	1.465048	39.786000
21.160420	1.468041	39.832000
21.185017	1.470568	39.878000
21.210495	1.474487	39.924000
21.235417	1.476979	39.970000
21.436846	1.480126	40.015000
21.462063	1.519934	40.388000
21.487284	1.523698	40.434000
21.511833	1.528217	40.480000
21.535905	1.530921	40.526000
21.560600	1.537715	40.572000
21.585413	1.541281	40.618000
21.681001	1.563010	40.664000
21.705834	1.562225	40.840000
21.730932	1.566283	40.886000
21.756639	1.571030	40.932000
21.781682	1.575607	40.979000
21.806393	1.581209	41.024000
21.830477	1.583084	41.071000
21.916749	1.587401	41.116000
21.941741	1.601158	41.275000
21.966570	1.604511	41.321000
21.991766	1.605346	41.367000
22.017005	1.609753	41.414000
22.042233	1.611168	41.460000
22.067466	1.614591	41.506000
22.091874	1.615331	41.552000
22.116429	1.616205	41.597000
22.140749	1.619757	41.644000
22.166133	1.619948	41.691000
22.191119	1.620423	41.736000
22.277053	1.623052	41.782000
22.301825	1.621247	41.940000
22.326957	1.620273	41.986000
22.351423	1.618844	42.031000
22.375649	1.616515	42.077000
22.400121	1.615345	42.123000
22.425313	1.615946	42.169000
22.513339	1.613507	42.215000
22.538373	1.612822	42.376000
22.563366	1.610054	42.422000
22.588466	1.611972	42.468000
22.613156	1.610748	42.513000
22.637985	1.610948	42.560000
22.662434	1.610064	42.606000
22.687647	1.608104	42.652000
22.712133	1.608449	42.698000
22.737592	1.608489	42.744000
22.762988	1.609543	42.790000
22.787475	1.604471	42.836000
22.873992	1.597615	42.882000
22.898328	1.592798	43.041000
22.923138	1.592068	43.087000
22.947817	1.589539	43.133000
22.973286	1.584962	43.179000
22.998103	1.581930	43.225000
23.023386	1.575748	43.271000
23.109417	1.573068	43.317000
23.134400	1.556487	43.476000
23.159504	1.550191	43.522000
23.184381	1.544784	43.568000
23.208728	1.541581	43.614000
23.233332	1.537585	43.660000
23.258561	1.531692	43.707000
23.283928	1.528327	43.753000
23.308801	1.523783	43.799000
23.334635	1.520144	43.845000
23.359049	1.515449	43.891000
23.384283	1.512202	43.937000
23.584165	1.498449	43.983000
23.609132	1.493434	44.353000
23.705104	1.492007	44.399000
23.729933	1.484215	44.576000
23.754251	1.482143	44.622000
23.779184	1.482829	44.668000
23.804380	1.480237	44.713000
23.829722	1.478105	44.759000
23.854901	1.477179	44.806000
23.879584	1.476708	44.852000
23.904513	1.480727	44.898000
23.929015	1.481022	44.944000
23.953531	1.482113	44.990000
23.978699	1.480367	45.036000
24.064340	1.479601	45.082000
24.089473	1.474416	45.241000
24.114959	1.473811	45.287000
24.140393	1.474036	45.333000
24.165005	1.472545	45.379000
24.189554	1.473400	45.424000
24.214438	1.470848	45.470000
24.416058	1.470588	45.517000
24.440847	1.445314	45.888000
24.464837	1.442186	45.934000
24.489518	1.436146	45.980000
24.514960	1.433373	46.026000
24.539906	1.429694	46.072000
24.565432	1.425371	46.117000
24.660348	1.414961	46.164000
24.686170	1.408720	46.340000
24.710832	1.406863	46.386000
24.735675	1.403395	46.433000
24.760237	1.402820	46.479000
24.784837	1.399967	46.525000
24.809979	1.398275	46.571000
24.896142	1.394647	46.617000
24.921370	1.389802	46.775000
24.946414	1.386684	46.822000
24.971708	1.386764	46.867000
24.996488	1.387130	46.914000
25.021242	1.385418	46.960000
25.045222	1.386143	47.006000
25.070274	1.383641	47.052000
25.095226	1.384647	47.098000
25.120704	1.382255	47.144000
25.145981	1.381639	47.190000
25.171321	1.381950	47.237000
25.256961	1.383732	47.283000
25.281594	1.380284	47.441000
25.306185	1.379637	47.487000
25.330835	1.381179	47.533000
25.355720	1.378421	47.579000
25.380839	1.379447	47.625000
25.406196	1.380033	47.671000
25.492481	1.381990	47.718000
25.517343	1.385308	47.876000
25.542508	1.387580	47.922000
25.566907	1.389572	47.968000
25.591467	1.391974	48.015000
25.616548	1.395007	48.061000
25.641708	1.397149	48.107000
25.666554	1.398921	48.153000
25.691973	1.399816	48.199000
25.717084	1.402719	48.245000
25.742255	1.405061	48.291000
25.766798	1.406527	48.337000
25.851437	1.418964	48.384000
25.876157	1.416572	48.540000
25.901627	1.419900	48.587000
25.926831	1.421416	48.633000
25.951581	1.423454	48.679000
25.976455	1.424295	48.725000
26.001432	1.428023	48.771000
26.088264	1.429384	48.816000
26.112385	1.434739	48.976000
26.137438	1.434419	49.022000
26.162339	1.433854	49.069000
26.187444	1.434008	49.114000
26.212588	1.435295	49.161000
26.238224	1.440850	49.207000
26.263507	1.442711	49.253000
26.288311	1.448282	49.300000
26.313040	1.450544	49.346000
26.337347	1.454092	49.392000
26.361911	1.456985	49.438000
26.561565	1.483835	49.484000
26.586917	1.484972	49.852000
26.682893	1.488660	49.898000
26.707440	1.504464	50.075000
26.732772	1.507157	50.121000
26.757472	1.511631	50.167000
26.782655	1.512362	50.212000
26.807515	1.516376	50.259000
26.832019	1.518717	50.305000
26.856356	1.520765	50.351000
26.881030	1.522386	50.395000
26.906113	1.523037	50.442000
26.931193	1.523307	50.488000
26.956933	1.524914	50.534000
27.043324	1.527997	50.580000
27.069167	1.523437	50.741000
27.093612	1.526252	50.787000
27.118333	1.525218	50.833000
27.142990	1.526422	50.880000
27.167657	1.525877	50.925000
27.193385	1.526442	50.972000
27.393499	1.527022	51.018000
27.418361	1.520664	51.388000
27.443972	1.519618	51.434000
27.468878	1.518492	51.481000
27.494579	1.517370	51.527000
27.519266	1.514893	51.573000
27.544045	1.513972	51.619000
27.639203	1.512896	51.665000
27.664333	1.510875	51.841000
27.688600	1.510069	51.887000
27.713085	1.509053	51.933000
27.738525	1.507477	51.978000
27.763556	1.507086	52.025000
27.788930	1.504754	52.072000
27.875171	1.502472	52.117000
27.900148	1.499174	52.276000
27.924900	1.496691	52.322000
27.948919	1.496691	52.368000
27.973911	1.493854	52.414000
27.999297	1.493694	52.461000
28.024080	1.491282	52.506000
28.049280	1.490246	52.553000
28.074778	1.485716	52.599000
28.099534	1.484700	52.646000
28.125245	1.483130	52.691000
28.149807	1.483484	52.738000
28.233910	1.480427	52.783000
28.259379	1.473906	52.940000
28.284173	1.472044	52.987000
28.309603	1.470808	53.033000
28.334404	1.468045	53.079000
28.359408	1.465478	53.125000
28.385406	1.463411	53.171000
28.470439	1.460814	53.217000
28.495019	1.451095	53.376000
28.519611	1.447516	53.422000
28.545003	1.443213	53.468000
28.569957	1.440710	53.514000
28.594848	1.438833	53.560000
28.620021	1.437707	53.606000
28.645021	1.434199	53.651000
28.669971	1.432822	53.698000
28.693991	1.431552	53.744000
28.718939	1.427713	53.789000
28.744414	1.425100	53.836000
28.829965	1.414160	53.883000
28.855845	1.408329	54.041000
28.880778	1.402649	54.087000
28.906047	1.401553	54.133000
28.930876	1.397725	54.180000
28.956535	1.395482	54.226000
28.980333	1.392830	54.272000
29.065212	1.389602	54.319000
29.090782	1.377145	54.476000
29.115874	1.372736	54.522000
29.141197	1.368572	54.568000
29.166526	1.366290	54.615000
29.191582	1.363338	54.661000
29.216268	1.358683	54.707000
29.240370	1.357122	54.753000
29.265147	1.356441	54.798000
29.289816	1.351446	54.844000
29.315566	1.347784	54.891000
29.340771	1.344950	54.937000
29.540716	1.317074	54.983000
29.565595	1.309377	55.353000
29.661628	1.306225	55.398000
29.686817	1.295055	55.576000
29.711978	1.291912	55.622000
29.737015	1.285920	55.669000
29.761865	1.284586	55.715000
29.786450	1.280309	55.761000
29.811106	1.279395	55.807000
29.836331	1.276191	55.853000
29.861978	1.273423	55.899000
29.886746	1.272832	55.945000
29.911790	1.270824	55.991000
29.936679	1.271678	56.037000
30.022407	1.282063	56.083000
30.046506	1.282417	56.241000
30.071184	1.286700	56.286000
30.096068	1.290277	56.333000
30.121255	1.293167	56.380000
30.146554	1.297059	56.426000
30.171528	1.300876	56.472000
30.372333	1.304720	56.518000
30.397196	1.350175	56.889000
30.422638	1.355515	56.935000
30.447848	1.362431	56.981000
30.473120	1.368512	57.027000
30.497681	1.374773	57.074000
30.522012	1.380383	57.120000
30.616853	1.403179	57.166000
30.641755	1.403079	57.341000
30.666792	1.407093	57.387000
30.692228	1.411322	57.433000
30.717239	1.413434	57.479000
30.742299	1.415666	57.525000
30.767410	1.419104	57.571000
30.853138	1.423163	57.617000
30.877332	1.433163	57.776000
30.902387	1.437282	57.822000
30.926821	1.438257	57.867000
30.952409	1.442116	57.914000
30.977847	1.442992	57.960000
31.002889	1.447206	58.007000
31.027956	1.450454	58.052000
31.052881	1.453486	58.099000
31.077807	1.456985	58.145000
31.102263	1.459287	58.191000
31.127722	1.462846	58.237000
31.212728	1.476928	58.284000
31.238156	1.477339	58.441000
31.263539	1.481252	58.487000
31.288014	1.485091	58.533000
31.312746	1.488319	58.579000
31.336849	1.493363	58.624000
31.362116	1.497568	58.671000
31.448101	1.500120	58.717000
31.473255	1.512906	58.876000
31.498487	1.515609	58.922000
31.523689	1.519773	58.968000
31.548971	1.522051	59.015000
31.573703	1.525839	59.061000
31.598879	1.529450	59.106000
31.623320	1.534713	59.153000
31.647715	1.539641	59.198000
31.672948	1.543123	59.245000
31.697798	1.546068	59.291000
31.723242	1.547653	59.337000
31.808478	1.559990	59.383000
31.833674	1.558112	59.540000
31.859049	1.559735	59.587000
31.883911	1.561645	59.633000
31.907960	1.566222	59.680000
31.933398	1.566660	59.725000
31.958102	1.566102	59.772000
32.044197	1.566911	59.817000
32.069518	1.566332	59.976000
32.094468	1.568501	60.022000
32.119522	1.569545	60.068000
32.144628	1.573438	60.114000
32.168911	1.572384	60.160000
32.193965	1.574302	60.207000
32.218988	1.577946	60.253000
32.244349	1.579899	60.300000
32.269351	1.582177	60.346000
32.294511	1.584832	60.391000
32.319620	1.588385	60.437000
32.519240	1.601461	60.484000
32.544588	1.600107	60.853000
32.640316	1.601251	60.899000
32.665483	1.606069	61.076000
32.690151	1.606269	61.122000
32.714765	1.607503	61.168000
32.739444	1.608618	61.214000
32.764569	1.611486	61.260000
32.789990	1.612790	61.307000
32.815230	1.615353	61.352000
32.840259	1.618203	61.398000
32.865192	1.618927	61.445000
32.890424	1.622730	61.490000
32.914919	1.624848	61.537000
32.999145	1.638002	61.583000
33.024996	1.636182	61.741000
33.049975	1.640170	61.787000
33.075069	1.642880	61.833000
33.099733	1.644094	61.879000
33.125296	1.648115	61.924000
33.150325	1.649665	61.970000
33.351116	1.652863	62.017000
33.376168	1.678864	62.388000
33.400717	1.683892	62.434000
33.424916	1.685754	62.480000
33.449615	1.689248	62.526000
33.474847	1.690737	62.572000
33.499918	1.695099	62.618000
33.595854	1.705518	62.664000
33.620875	1.704304	62.841000
33.645819	1.705568	62.887000
33.670936	1.706918	62.933000
33.695900	1.708373	62.979000
33.720656	1.709727	63.025000
33.745193	1.709827	63.072000
33.830848	1.710416	63.117000
33.855935	1.708373	63.276000
33.881375	1.708603	63.322000
33.906907	1.709617	63.368000
33.931598	1.707469	63.414000
33.956865	1.707957	63.460000
33.980987	1.708573	63.506000
34.005620	1.707719	63.552000
34.030626	1.709171	63.598000
34.056308	1.708243	63.644000
34.081168	1.707549	63.691000
34.105978	1.706545	63.737000
34.191633	1.706214	63.783000
34.216493	1.700721	63.940000
34.241898	1.703042	63.987000
34.266258	1.702105	64.033000
34.291449	1.702216	64.080000
34.316228	1.700403	64.125000
34.341399	1.698184	64.171000
34.427380	1.699098	64.217000
34.452563	1.693795	64.376000
34.477830	1.692332	64.422000
34.502551	1.689994	64.468000
34.527473	1.689483	64.514000
34.551599	1.685674	64.561000
34.577039	1.683336	64.607000
34.601929	1.679064	64.653000
34.627235	1.675471	64.699000
34.652882	1.671432	64.745000
34.677992	1.666487	64.792000
34.703024	1.662563	64.838000
34.787350	1.646613	64.884000
34.812345	1.636958	65.041000
34.837020	1.629591	65.087000
34.862160	1.624055	65.133000
34.887520	1.618997	65.180000
34.912710	1.614821	65.225000
34.937589	1.611208	65.271000
35.023382	1.608609	65.318000
35.049007	1.599923	65.476000
35.073567	1.596995	65.522000
35.097616	1.597324	65.569000
35.122672	1.594376	65.615000
35.147658	1.594506	65.661000
35.173190	1.592298	65.707000
35.198165	1.593202	65.753000
35.223383	1.592917	65.800000
35.249172	1.594246	65.846000
35.274020	1.598629	65.892000
35.298838	1.600817	65.938000
35.497859	1.647002	65.985000
35.522442	1.648601	66.353000
35.618873	1.653867	66.398000
35.643422	1.671928	66.576000
35.668662	1.675320	66.622000
35.693760	1.677949	66.669000
35.719161	1.682247	66.715000
35.743902	1.684835	66.761000
35.769834	1.687924	66.807000
35.794348	1.687924	66.854000
35.819231	1.689343	66.899000
35.843526	1.691711	66.946000
35.867867	1.693176	66.991000
35.893007	1.694460	67.037000
35.978659	1.700710	67.084000
36.003995	1.698322	67.241000
36.029104	1.700502	67.287000
36.054391	1.702460	67.333000
36.079715	1.703149	67.380000
36.104617	1.705663	67.426000
36.128889	1.706344	67.472000
36.329535	1.709121	67.519000
36.354341	1.718791	67.889000
36.379312	1.721410	67.935000
36.403992	1.719432	67.980000
36.428971	1.719071	68.026000
36.453969	1.720146	68.072000
36.479013	1.718691	68.118000
36.574380	1.720216	68.163000
36.599843	1.717567	68.341000
36.624895	1.717412	68.387000
36.649075	1.716993	68.433000
36.674077	1.716493	68.479000
36.699236	1.713679	68.525000
36.724380	1.713964	68.572000
36.810581	1.713030	68.618000
36.835445	1.716118	68.776000
36.860800	1.716322	68.822000
36.885879	1.718308	68.869000
36.910243	1.720845	68.915000
36.934592	1.722070	68.961000
36.959686	1.723839	69.007000
36.984757	1.723479	69.053000
37.009851	1.723419	69.099000
37.035165	1.725364	69.145000
37.060359	1.726508	69.191000
37.084884	1.726811	69.237000
37.169975	1.736396	69.283000
37.194934	1.733847	69.440000
37.219694	1.735192	69.487000
37.244627	1.737501	69.533000
37.269840	1.737851	69.579000
37.295184	1.738360	69.625000
37.320359	1.737126	69.672000
37.406421	1.736627	69.717000
37.430736	1.729771	69.876000
37.454992	1.729140	69.922000
37.480048	1.728186	69.968000
37.505223	1.727342	70.014000
37.530970	1.725294	70.060000
37.556306	1.724893	70.106000
37.581574	1.723459	70.152000
37.606472	1.721430	70.198000
37.631889	1.720026	70.244000
37.655880	1.717537	70.291000
37.680663	1.716332	70.337000
37.766349	1.712575	70.383000
37.791520	1.708773	70.541000
37.816253	1.707238	70.586000
37.841282	1.707897	70.632000
37.867460	1.706464	70.679000
37.891847	1.706244	70.725000
37.916434	1.705050	70.771000
38.002492	1.703945	70.817000
38.026607	1.700693	70.976000
38.052293	1.698422	71.021000
38.077295	1.698663	71.068000
38.102289	1.697268	71.114000
38.127214	1.698452	71.161000
38.153242	1.696629	71.207000
38.178017	1.697593	71.253000
38.202550	1.697913	71.299000
38.227030	1.700202	71.345000
38.251728	1.700652	71.391000
38.277011	1.700382	71.438000
38.476827	1.700502	71.484000
38.502417	1.693496	71.853000
38.597449	1.693546	71.900000
38.623093	1.691037	72.076000
38.648371	1.689198	72.122000
38.672962	1.686550	72.168000
38.697853	1.685735	72.214000
38.723039	1.682767	72.260000
38.747092	1.680967	72.306000
38.771311	1.676885	72.352000
38.796920	1.673122	72.398000
38.822663	1.669799	72.444000
38.847073	1.665916	72.489000
38.873101	1.662523	72.536000
38.957823	1.654132	72.583000
38.983170	1.647875	72.740000
39.008856	1.643964	72.787000
39.032272	1.639724	72.833000
39.057054	1.635813	72.879000
39.082402	1.631999	72.925000
39.107193	1.629511	72.971000
39.308261	1.627447	73.016000
39.334081	1.603135	73.388000
39.359037	1.599987	73.435000
39.383778	1.597154	73.480000
39.409441	1.591856	73.526000
39.433893	1.586515	73.572000
39.457389	1.581798	73.618000
39.554193	1.571109	73.663000
39.579153	1.564242	73.841000
39.603187	1.561614	73.887000
39.628273	1.560120	73.933000
39.653448	1.557741	73.979000
39.678861	1.554737	74.025000
39.703921	1.555292	74.070000
39.790218	1.553024	74.117000
39.814490	1.546478	74.276000
39.839726	1.543989	74.322000
39.864805	1.543809	74.368000
39.889088	1.542274	74.415000
39.914163	1.541490	74.460000
39.939853	1.536610	74.507000
39.964252	1.535719	74.553000
39.990229	1.536903	74.599000
40.015504	1.535103	74.646000
40.040237	1.534444	74.692000
40.063587	1.533278	74.738000
40.149004	1.533238	74.784000
40.173718	1.529905	74.940000
40.199227	1.533118	74.986000
40.224878	1.532344	75.031000
40.249431	1.533829	75.078000
40.274348	1.534464	75.124000
40.299385	1.536059	75.170000
40.384606	1.536913	75.217000
40.409915	1.538127	75.375000
40.434932	1.538711	75.422000
40.459715	1.538771	75.468000
40.485647	1.541200	75.514000
40.510549	1.542079	75.560000
40.534821	1.544278	75.606000
40.560011	1.542444	75.652000
40.585547	1.542204	75.699000
40.609643	1.540865	75.745000
40.634238	1.540096	75.791000
40.659939	1.539302	75.837000
40.745175	1.542164	75.883000
40.770773	1.538701	76.041000
40.796205	1.539955	76.087000
40.820934	1.540456	76.134000
40.846097	1.539620	76.181000
40.871176	1.541620	76.227000
40.895479	1.544553	76.273000
40.981157	1.547382	76.319000
41.005806	1.554638	76.476000
41.030954	1.556296	76.522000
41.056935	1.557435	76.569000
41.081276	1.557017	76.615000
41.106447	1.555282	76.661000
41.130915	1.554706	76.707000
41.156148	1.555793	76.753000
41.180620	1.555562	76.800000
41.205598	1.557395	76.846000
41.230935	1.557601	76.892000
41.256194	1.558329	76.937000
41.455660	1.550404	76.984000
41.481346	1.546107	77.353000
41.577186	1.544583	77.399000
41.601615	1.535849	77.576000
41.627670	1.532582	77.622000
41.652176	1.531060	77.668000
41.676694	1.528491	77.715000
41.701408	1.526462	77.760000
41.726771	1.525128	77.807000
41.751704	1.524021	77.854000
41.776752	1.523236	77.900000
41.802407	1.522915	77.946000
41.827240	1.522836	77.992000
41.851800	1.522000	78.038000
41.936779	1.522465	78.083000
41.960679	1.516714	78.241000
41.986629	1.518526	78.287000
42.011885	1.516824	78.334000
42.036833	1.516684	78.380000
42.061893	1.514998	78.426000
42.087782	1.514412	78.472000
42.287045	1.514583	78.519000
42.312466	1.518906	78.888000
42.337833	1.519097	78.934000
42.362727	1.520523	78.981000
42.386934	1.520733	79.027000
42.412339	1.521830	79.073000
42.436930	1.523861	79.120000
42.531921	1.533558	79.166000
42.557391	1.532283	79.341000
42.582516	1.533237	79.387000
42.607099	1.534369	79.433000
42.632574	1.536810	79.479000
42.657714	1.539101	79.525000
42.682044	1.540346	79.571000
42.768121	1.542945	79.618000
42.792301	1.547262	79.776000
42.817588	1.552608	79.822000
42.842981	1.555662	79.868000
42.868352	1.558141	79.914000
42.893054	1.560430	79.960000
42.918187	1.563693	80.007000
42.942974	1.566975	80.052000
42.966985	1.569239	80.098000
42.991545	1.575636	80.144000
43.016966	1.576640	80.189000
43.042210	1.580354	80.236000
43.128364	1.591767	80.282000
43.153743	1.591707	80.441000
43.177980	1.595250	80.486000
43.203178	1.598159	80.533000
43.227949	1.601402	80.579000
43.251380	1.603105	80.624000
43.277120	1.604825	80.670000
43.363213	1.606029	80.716000
43.388365	1.613085	80.876000
43.414277	1.612151	80.922000
43.439948	1.613536	80.969000
43.464462	1.614660	81.015000
43.489341	1.616353	81.062000
43.514950	1.615964	81.108000
43.538457	1.617622	81.154000
43.564008	1.618193	81.200000
43.589210	1.619706	81.246000
43.614685	1.620462	81.293000
43.639506	1.621876	81.339000
43.724143	1.627508	81.385000
43.748853	1.624135	81.541000
43.773179	1.628482	81.587000
43.798630	1.628242	81.633000
43.823433	1.630715	81.680000
43.849257	1.627992	81.726000
43.874401	1.628692	81.772000
43.959069	1.628792	81.818000
43.985527	1.628121	81.976000
44.010344	1.630350	82.022000
44.035381	1.630655	82.069000
44.059664	1.632199	82.115000
44.085123	1.630520	82.161000
44.109050	1.631434	82.208000
44.134974	1.631929	82.254000
44.159972	1.633324	82.300000
44.184743	1.633304	82.346000
44.209853	1.635623	82.392000
44.234924	1.636172	82.438000
44.434659	1.648105	82.484000
44.459550	1.644687	82.853000
44.556042	1.643993	82.900000
44.579804	1.644013	83.076000
44.603910	1.643238	83.121000
44.629293	1.642769	83.168000
44.653569	1.644103	83.213000
44.679470	1.643059	83.260000
44.704694	1.643079	83.305000
44.729742	1.645057	83.351000
44.754241	1.643562	83.398000
44.779247	1.643368	83.444000
44.804245	1.642388	83.490000
44.828164	1.644213	83.536000
44.915014	1.644352	83.581000
44.939954	1.643278	83.741000
44.965064	1.641504	83.787000
44.990350	1.644607	83.833000
45.016139	1.644472	83.879000
45.040565	1.646871	83.924000
45.065529	1.648005	83.971000
45.267665	1.649725	84.017000
45.291342	1.669113	84.388000
45.316455	1.670039	84.434000
45.341376	1.674826	84.480000
45.365641	1.677759	84.526000
45.390708	1.682176	84.572000
45.416467	1.685145	84.617000
45.511784	1.700492	84.663000
45.536770	1.699961	84.841000
45.562468	1.704678	84.887000
45.587546	1.708961	84.933000
45.611415	1.713399	84.980000
45.636571	1.716482	85.026000
45.662172	1.722444	85.072000
45.747539	1.724278	85.118000
45.772733	1.730935	85.276000
45.797293	1.730049	85.322000
45.822145	1.731558	85.368000
45.848569	1.729640	85.415000
45.873402	1.728526	85.461000
45.897217	1.727422	85.507000
45.922464	1.726437	85.554000
45.947904	1.726247	85.600000
45.972564	1.725516	85.647000
45.998039	1.723728	85.693000
46.023609	1.722744	85.739000
46.107670	1.717121	85.785000
46.132960	1.711594	85.941000
46.157613	1.711161	85.987000
46.182108	1.710305	86.033000
46.207774	1.708762	86.079000
46.232550	1.708081	86.125000
46.257571	1.706652	86.172000
46.343745	1.707987	86.218000
46.368355	1.705149	86.376000
46.393491	1.706977	86.422000
46.418047	1.704135	86.468000
46.442473	1.702700	86.514000
46.467018	1.699686	86.560000
46.492700	1.699457	86.606000
46.517840	1.696123	86.652000
46.542638	1.696508	86.698000
46.567487	1.694430	86.744000
46.593130	1.693885	86.790000
46.617022	1.694390	86.837000
46.703284	1.690716	86.883000
46.727637	1.687843	87.041000
46.752255	1.687464	87.087000
46.777998	1.688458	87.133000
46.803538	1.687664	87.179000
46.828240	1.688828	87.225000
46.854249	1.687734	87.271000
46.938790	1.688987	87.317000
46.964337	1.687963	87.476000
46.988951	1.687873	87.522000
47.013431	1.685454	87.568000
47.038360	1.685524	87.614000
47.063780	1.685534	87.660000
47.089186	1.684161	87.707000
47.113369	1.685999	87.752000
47.139574	1.685604	87.799000
47.163969	1.686209	87.845000
47.188529	1.685235	87.891000
47.213769	1.685175	87.937000
47.413835	1.686209	87.984000
47.438437	1.683500	88.352000
47.534250	1.684061	88.399000
47.559206	1.681642	88.576000
47.583947	1.681572	88.622000
47.609352	1.681862	88.668000
47.634692	1.679053	88.714000
47.659801	1.679103	88.760000
47.684631	1.678557	88.807000
47.710286	1.677808	88.853000
47.734223	1.676774	88.899000
47.758849	1.676544	88.946000
47.784804	1.675250	88.992000
47.809955	1.673351	89.038000
47.894285	1.670973	89.084000
47.920098	1.666325	89.240000
47.944881	1.664396	89.287000
47.969633	1.663302	89.333000
47.994404	1.662137	89.379000
48.018657	1.660484	89.425000
48.043794	1.658574	89.471000
48.244632	1.657544	89.517000
48.269687	1.662602	89.889000
48.294889	1.663727	89.934000
48.320460	1.665171	89.981000
48.345815	1.667139	90.027000
48.370218	1.669073	90.072000
48.395654	1.671502	90.119000
48.491036	1.691961	90.165000
48.515285	1.694119	90.341000
48.539684	1.697612	90.387000
48.564851	1.702229	90.433000
48.589450	1.709305	90.478000
48.614356	1.715107	90.525000
48.639892	1.720566	90.570000
48.726238	1.725223	90.615000
48.751467	1.745674	90.776000
48.776907	1.751974	90.822000
48.801283	1.758741	90.869000
48.826173	1.766268	90.914000
48.851486	1.772109	90.961000
48.875697	1.780947	91.008000
48.901175	1.788374	91.054000
48.926580	1.797067	91.100000
48.951771	1.805319	91.145000
48.976723	1.811595	91.192000
49.001625	1.819233	91.238000
49.085693	1.844616	91.284000
49.111053	1.850001	91.441000
49.136143	1.858289	91.487000
49.161018	1.866192	91.533000
49.185989	1.872162	91.579000
49.211256	1.878203	91.625000
49.236285	1.884113	91.671000
49.321879	1.890900	91.717000
49.347215	1.916913	91.876000
49.371272	1.924526	91.922000
49.396843	1.930596	91.969000
49.421733	1.934385	92.015000
49.446870	1.940095	92.060000
49.472006	1.947432	92.106000
49.497792	1.953321	92.154000
49.522874	1.955990	92.200000
49.547204	1.958767	92.246000
49.572356	1.963909	92.292000
49.597388	1.968319	92.339000
49.681864	1.991002	92.385000
49.706786	1.990762	92.541000
49.731803	1.995379	92.587000
49.756751	1.999453	92.633000
49.782191	2.003056	92.679000
49.805814	2.006379	92.725000
49.830408	2.008937	92.770000
49.917239	2.013903	92.817000
49.941872	2.023030	92.976000
49.967474	2.023974	93.022000
49.992503	2.024422	93.068000
50.017516	2.024908	93.113000
50.042072	2.024757	93.160000
50.068008	2.026643	93.206000
50.091381	2.026363	93.252000
50.115753	2.025218	93.298000
50.141565	2.024342	93.344000
50.166295	2.023040	93.390000
50.191281	2.023099	93.436000
50.392399	2.017921	93.482000
50.418327	2.014508	93.854000
50.512818	2.013564	93.900000
50.538343	2.007291	94.076000
50.563568	2.005522	94.122000
50.588347	2.004199	94.169000
50.613349	2.002925	94.214000
50.638285	2.000775	94.261000
50.663038	1.997133	94.306000
50.687590	1.994724	94.353000
50.713499	1.989937	94.399000
50.738539	1.988812	94.446000
50.763687	1.985169	94.491000
50.788812	1.982300	94.538000
50.873418	1.972442	94.584000
50.898474	1.965185	94.741000
50.922773	1.962222	94.787000
50.947449	1.959911	94.833000
50.972773	1.958937	94.880000
50.998317	1.955095	94.926000
51.023676	1.949624	94.972000
51.223181	1.943753	95.018000
51.249074	1.889933	95.388000
51.273907	1.882836	95.433000
51.298229	1.876726	95.479000
51.323246	1.869389	95.525000
51.346708	1.862843	95.570000
51.371779	1.856412	95.616000
51.468675	1.830963	95.663000
51.493750	1.821304	95.840000
51.518314	1.814277	95.886000
51.543635	1.807040	95.934000
51.569186	1.797902	95.980000
51.594353	1.792202	96.026000
51.619248	1.783929	96.072000
51.704745	1.776562	96.118000
51.728979	1.751383	96.276000
51.753601	1.744978	96.321000
51.779064	1.737005	96.368000
51.803628	1.729770	96.413000
51.829041	1.724412	96.460000
51.854653	1.718580	96.506000
51.879275	1.712869	96.552000
51.904219	1.707981	96.598000
51.929045	1.703944	96.644000
51.953355	1.699686	96.690000
51.978388	1.694029	96.737000
52.064877	1.675249	96.783000
52.089579	1.668484	96.941000
52.114327	1.665660	96.987000
52.139994	1.662542	97.033000
52.164285	1.656790	97.079000
52.189491	1.652163	97.124000
52.214278	1.648369	97.171000
52.299741	1.644512	97.217000
52.325188	1.624493	97.376000
52.350640	1.619696	97.422000
52.375361	1.616337	97.469000
52.400724	1.610826	97.515000
52.425980	1.606309	97.561000
52.450394	1.601211	97.607000
52.475331	1.596544	97.653000
52.500052	1.590532	97.699000
52.525062	1.585281	97.745000
52.550721	1.580603	97.792000
52.576153	1.574940	97.838000
52.661044	1.560993	97.885000
52.686338	1.552159	98.041000
52.711432	1.547501	98.087000
52.735231	1.542884	98.133000
52.761048	1.538870	98.180000
52.786184	1.535658	98.226000
52.810310	1.531638	98.272000
52.896534	1.526752	98.318000
52.922031	1.512180	98.476000
52.946807	1.509477	98.522000
52.972151	1.506410	98.568000
52.996918	1.504412	98.615000
53.020741	1.502211	98.660000
53.045881	1.502791	98.707000
53.071390	1.503697	98.753000
53.095808	1.501846	98.799000
53.121494	1.499828	98.845000
53.146857	1.498872	98.892000
53.172562	1.498542	98.938000
53.371698	1.490155	98.985000
53.397299	1.487522	99.354000
53.492689	1.487762	99.399000
53.517545	1.491565	99.576000
53.543339	1.492176	99.622000
53.567476	1.491866	99.669000
53.591844	1.493412	99.715000
53.616889	1.493768	99.761000
53.642359	1.493132	99.807000
53.667204	1.493788	99.853000
53.692221	1.496199	99.898000
53.717619	1.499263	99.945000
53.742121	1.503366	99.991000
53.766436	1.505889	100.037000
53.851330	1.508011	100.084000
53.876520	1.505558	100.240000
53.902241	1.507375	100.287000
53.927439	1.511234	100.333000
53.952198	1.513731	100.379000
53.977354	1.515028	100.426000
54.003347	1.516124	100.472000
54.203113	1.517025	100.518000
54.228250	1.517480	100.889000
54.253720	1.516824	100.935000
54.277954	1.518061	100.981000
54.302349	1.519126	101.028000
54.327551	1.520303	101.074000
54.353041	1.520613	101.120000
54.447751	1.530778	101.165000
54.473740	1.527505	101.341000
54.498469	1.527835	101.387000
54.523018	1.529573	101.433000
54.548050	1.529814	101.479000
54.573095	1.530314	101.525000
54.597405	1.530878	101.572000
54.683537	1.530638	101.618000
54.708861	1.533908	101.776000
54.733679	1.537813	101.823000
54.759637	1.541009	101.869000
54.784620	1.546187	101.915000
54.809396	1.548455	101.962000
54.835016	1.552259	102.008000
54.859945	1.554886	102.054000
54.883864	1.557094	102.100000
54.908827	1.560038	102.146000
54.934371	1.562778	102.193000
54.959131	1.567395	102.238000
55.044271	1.592306	102.285000
55.069673	1.596954	102.441000
55.093956	1.606399	102.487000
55.119350	1.616437	102.533000
55.143756	1.624728	102.580000
55.168148	1.633323	102.626000
55.194333	1.643017	102.672000
55.279170	1.654011	102.718000
55.304406	1.690676	102.876000
55.330115	1.702039	102.922000
55.355286	1.713399	102.969000
55.379746	1.723003	103.015000
55.404545	1.730934	103.061000
55.429312	1.741572	103.107000
55.454157	1.756038	103.154000
55.479470	1.769355	103.199000
55.504533	1.784249	103.246000
55.529358	1.799408	103.292000
55.553942	1.812911	103.337000
55.640035	1.865485	103.383000
55.663661	1.875309	103.541000
55.689151	1.887631	103.587000
55.714288	1.900458	103.634000
55.738990	1.913505	103.680000
55.764603	1.926412	103.726000
55.789601	1.939139	103.772000
55.875252	1.950660	103.818000
55.900562	1.988991	103.976000
55.924634	1.999322	104.022000
55.949136	2.010955	104.067000
55.974319	2.020701	104.114000
55.999874	2.030729	104.160000
56.024161	2.041939	104.206000
56.049982	2.052077	104.252000
56.075072	2.061958	104.297000
56.099717	2.071946	104.344000
56.124408	2.081261	104.390000
56.149440	2.088847	104.436000
56.350163	2.149713	104.482000
56.375046	2.152715	104.854000
56.471308	2.158184	104.900000
56.495065	2.174159	105.076000
56.520332	2.178983	105.122000
56.545349	2.183527	105.168000
56.570651	2.188191	105.214000
56.595553	2.192421	105.260000
56.621262	2.198141	105.307000
56.646364	2.204917	105.353000
56.670471	2.209331	105.399000
56.695534	2.214596	105.445000
56.720041	2.217349	105.491000
56.745050	2.223200	105.537000
56.831051	2.244674	105.583000
56.855227	2.247216	105.741000
56.880863	2.254764	105.787000
56.906572	2.260934	105.833000
56.930982	2.268927	105.879000
56.955135	2.275563	105.925000
56.980191	2.283981	105.971000
57.181759	2.291883	106.018000
57.205504	2.351825	106.388000
57.231175	2.358756	106.435000
57.255946	2.363260	106.480000
57.281282	2.367874	106.527000
57.306185	2.372984	106.573000
57.331517	2.377664	106.619000
57.426792	2.390858	106.665000
57.451932	2.389261	106.841000
57.477476	2.391181	106.888000
57.501022	2.392646	106.933000
57.525570	2.393610	106.979000
57.551137	2.395022	107.025000
57.576354	2.396993	107.071000
57.662086	2.397807	107.117000
57.687380	2.394835	107.275000
57.712313	2.393147	107.322000
57.737449	2.390778	107.369000
57.762662	2.389792	107.415000
57.786189	2.388397	107.460000
57.810895	2.386732	107.506000
57.836839	2.384614	107.552000
57.861771	2.380890	107.599000
57.886896	2.379355	107.645000
57.911668	2.378570	107.691000
57.937503	2.379265	107.737000
58.022479	2.374140	107.783000
58.047473	2.369131	107.941000
58.071710	2.366928	107.986000
58.096605	2.364972	108.033000
58.122394	2.362599	108.080000
58.147573	2.361764	108.125000
58.172705	2.359803	108.172000
58.258514	2.359732	108.218000
58.282771	2.355243	108.376000
58.307312	2.354012	108.422000
58.331922	2.353191	108.468000
58.356943	2.349532	108.513000
58.382003	2.347731	108.560000
58.407585	2.344573	108.606000
58.433067	2.341420	108.653000
58.457946	2.338342	108.699000
58.483086	2.336736	108.745000
58.508991	2.335054	108.791000
58.532468	2.333037	108.838000
58.617620	2.330755	108.884000
58.642576	2.326672	109.040000
58.667301	2.326552	109.087000
58.693448	2.327607	109.133000
58.718500	2.328873	109.179000
58.743556	2.328353	109.226000
58.768415	2.328313	109.272000
58.852956	2.329760	109.318000
58.878588	2.339989	109.475000
58.903321	2.342191	109.522000
58.928189	2.344113	109.568000
58.953283	2.346876	109.614000
58.978723	2.348657	109.660000
59.004021	2.351169	109.706000
59.028358	2.352355	109.752000
59.054048	2.352085	109.799000
59.078005	2.354157	109.845000
59.102830	2.354187	109.891000
59.128074	2.356354	109.938000
59.327925	2.365828	109.984000
59.352942	2.364377	110.352000
59.449204	2.364367	110.399000
59.474609	2.368691	110.576000
59.498916	2.368310	110.621000
59.524344	2.368531	110.667000
59.549469	2.370297	110.714000
59.574068	2.373876	110.760000
59.598113	2.374991	110.806000
59.623722	2.375192	110.852000
59.648501	2.376038	110.898000
59.673177	2.376269	110.945000
59.699101	2.376733	110.990000
59.724310	2.377324	111.037000
59.809716	2.381241	111.083000
59.834818	2.375978	111.241000
59.859262	2.376098	111.287000
59.883581	2.377234	111.333000
59.908948	2.378850	111.379000
59.933289	2.378990	111.425000
59.959094	2.378900	111.471000
60.159463	2.380550	111.517000
60.184061	2.380831	111.888000
60.209559	2.382105	111.934000
60.234741	2.382684	111.981000
60.260300	2.382694	112.027000
60.284415	2.384174	112.073000
60.309102	2.384544	112.119000
60.405053	2.387041	112.165000
60.429275	2.385307	112.341000
60.454611	2.385768	112.387000
60.479521	2.388820	112.433000
60.504461	2.389721	112.479000
60.529736	2.390907	112.525000
60.555284	2.393459	112.571000
60.640605	2.394253	112.617000
60.665718	2.404258	112.776000
60.690678	2.406856	112.822000
60.714366	2.409920	112.868000
60.740409	2.410904	112.915000
60.765753	2.415287	112.961000
60.790482	2.418599	113.007000
60.815876	2.421844	113.053000
60.841254	2.424382	113.099000
60.866567	2.427885	113.145000
60.890382	2.431787	113.192000
60.915388	2.436136	113.238000
60.999653	2.457433	113.284000
61.025104	2.461227	113.441000
61.050310	2.468678	113.487000
61.074966	2.474570	113.532000
61.100390	2.481846	113.579000
61.125619	2.487973	113.624000
61.149929	2.492440	113.671000
61.235661	2.499046	113.717000
61.260291	2.515013	113.876000
61.285466	2.519929	113.921000
61.310809	2.524177	113.968000
61.336272	2.528924	114.014000
61.360694	2.533352	114.060000
61.386157	2.539424	114.106000
61.410771	2.544610	114.152000
61.434936	2.550352	114.198000
61.459500	2.553706	114.244000
61.484963	2.557388	114.290000
61.510514	2.562620	114.336000
61.596611	2.577796	114.383000
61.621721	2.577511	114.541000
61.646930	2.579572	114.588000
61.672043	2.581700	114.634000
61.697283	2.583858	114.680000
61.720899	2.586706	114.726000
61.745605	2.589750	114.772000
61.831659	2.592129	114.818000
61.856727	2.603035	114.976000
61.881921	2.606313	115.022000
61.907395	2.609321	115.068000
61.931809	2.611589	115.115000
61.956877	2.614045	115.160000
61.982017	2.616858	115.207000
62.005217	2.620026	115.252000
62.030853	2.622829	115.298000
62.056458	2.626476	115.344000
62.081491	2.630841	115.390000
62.106658	2.634660	115.437000
62.307315	2.659236	115.483000
62.332252	2.658481	115.854000
62.427281	2.661479	115.900000
62.452913	2.661999	116.076000
62.477957	2.663540	116.122000
62.501937	2.665157	116.168000
62.526455	2.665488	116.213000
62.551300	2.666183	116.260000
62.576432	2.666063	116.306000
62.601688	2.668575	116.352000
62.627619	2.668795	116.398000
62.652356	2.670787	116.445000
62.677358	2.670867	116.490000
62.702906	2.672394	116.537000
62.787297	2.675026	116.582000
62.812310	2.673490	116.740000
62.837451	2.674796	116.787000
62.862422	2.677609	116.833000
62.887547	2.680747	116.879000
62.913006	2.684465	116.925000
62.938473	2.689535	116.972000
63.138058	2.692728	117.018000
63.163579	2.733035	117.388000
63.188546	2.737585	117.434000
63.213037	2.742485	117.481000
63.238020	2.746754	117.526000
63.262480	2.751488	117.573000
63.287786	2.756042	117.619000
63.383621	2.773143	117.665000
63.408819	2.771471	117.841000
63.433460	2.776426	117.888000
63.458808	2.780025	117.934000
63.484332	2.783043	117.980000
63.509384	2.786080	118.027000
63.534075	2.790109	118.072000
63.618451	2.795639	118.119000
63.643299	2.808460	118.276000
63.668701	2.811963	118.322000
63.694394	2.813540	118.368000
63.719058	2.817021	118.414000
63.744191	2.820593	118.461000
63.769546	2.824381	118.506000
63.793945	2.827744	118.553000
63.818897	2.832362	118.599000
63.843764	2.836225	118.645000
63.867921	2.839217	118.691000
63.893288	2.842355	118.737000
63.980023	2.853239	118.782000
64.004368	2.852804	118.941000
64.030050	2.856327	118.988000
64.055217	2.858746	119.034000
64.078755	2.862269	119.080000
64.103611	2.862854	119.126000
64.128947	2.866083	119.172000
64.214510	2.867077	119.218000
64.239558	2.868706	119.376000
64.265217	2.868906	119.422000
64.289478	2.869197	119.468000
64.314564	2.867321	119.514000
64.339048	2.866317	119.559000
64.362878	2.864818	119.605000
64.388687	2.862764	119.651000
64.413885	2.861115	119.698000
64.438986	2.858937	119.744000
64.463881	2.856497	119.791000
64.490128	2.853989	119.837000
64.575007	2.846794	119.883000
64.601207	2.837557	120.041000
64.624995	2.834294	120.088000
64.648945	2.828928	120.133000
64.674930	2.823931	120.180000
64.699748	2.819461	120.225000
64.724488	2.815905	120.271000
64.810574	2.811531	120.318000
64.836060	2.800904	120.476000
64.860747	2.797565	120.522000
64.885810	2.792050	120.568000
64.909821	2.785915	120.614000
64.934500	2.780339	120.660000
64.959886	2.775419	120.705000
64.985257	2.769449	120.751000
65.009698	2.763824	120.798000
65.034892	2.758695	120.844000
65.059971	2.750796	120.889000
65.084589	2.744967	120.936000
65.285657	2.704869	120.982000
65.311312	2.697672	121.354000
65.406771	2.693824	121.400000
65.430997	2.673720	121.576000
65.455677	2.668245	121.622000
65.480049	2.662534	121.668000
65.505581	2.657265	121.714000
65.531113	2.653477	121.760000
65.556345	2.648532	121.806000
65.580971	2.643577	121.852000
65.605834	2.639062	121.898000
65.631021	2.632872	121.944000
65.654916	2.628899	121.990000
65.680256	2.622507	122.037000
65.765996	2.606243	122.083000
65.791267	2.594757	122.241000
65.817083	2.589599	122.288000
65.842032	2.584306	122.335000
65.866749	2.577986	122.381000
65.892189	2.573078	122.427000
65.918221	2.566513	122.473000
66.116661	2.559606	122.519000
66.142363	2.512162	122.889000
66.166742	2.507974	122.934000
66.190853	2.502587	122.981000
66.216531	2.498639	123.027000
66.241986	2.493863	123.073000
66.267434	2.487481	123.119000
66.362409	2.471745	123.165000
66.388033	2.462686	123.341000
66.412889	2.459103	123.388000
66.437284	2.454029	123.434000
66.461941	2.450258	123.479000
66.486843	2.443936	123.526000
66.511284	2.439817	123.570000
66.597876	2.433026	123.617000
66.622609	2.419375	123.776000
66.647611	2.414467	123.822000
66.672759	2.409810	123.867000
66.698145	2.406647	123.914000
66.721864	2.403453	123.960000
66.746728	2.399381	124.006000
66.771661	2.395928	124.052000
66.796271	2.391088	124.097000
66.821565	2.386126	124.143000
66.846958	2.382878	124.189000
66.871937	2.380499	124.235000
66.958661	2.374811	124.282000
66.983486	2.368911	124.441000
67.007927	2.367725	124.488000
67.032783	2.364821	124.534000
67.058061	2.363666	124.580000
67.083425	2.363335	124.627000
67.108672	2.362629	124.672000
67.193513	2.363130	124.719000
67.218907	2.363876	124.876000
67.244162	2.365653	124.922000
67.268135	2.368610	124.968000
67.292576	2.369686	125.014000
67.318100	2.368290	125.060000
67.342987	2.368721	125.106000
67.367897	2.369071	125.152000
67.393275	2.368270	125.198000
67.418024	2.368780	125.244000
67.442426	2.367574	125.290000
67.467267	2.367815	125.336000
67.554259	2.366709	125.383000
67.578308	2.362259	125.542000
67.604286	2.361604	125.588000
67.629449	2.358751	125.634000
67.654090	2.357735	125.680000
67.679714	2.356969	125.726000
67.704655	2.357159	125.772000
67.790241	2.357129	125.819000
67.814936	2.356043	125.976000
67.839699	2.355333	126.022000
67.864340	2.356388	126.069000
67.889373	2.355923	126.115000
67.915036	2.357069	126.161000
67.939538	2.356659	126.207000
67.965178	2.355633	126.252000
67.990172	2.354768	126.299000
68.013983	2.353581	126.345000
68.038962	2.354827	126.391000
68.063956	2.354878	126.437000
68.264433	2.370076	126.483000
68.289543	2.368015	126.853000
68.385117	2.369245	126.900000
68.409727	2.374931	127.075000
68.434860	2.378700	127.122000
68.460430	2.379565	127.168000
68.486032	2.380499	127.215000
68.510488	2.380016	127.261000
68.535728	2.380750	127.306000
68.560361	2.381814	127.353000
68.584388	2.384723	127.399000
68.610143	2.389671	127.445000
68.635314	2.392081	127.491000
68.660123	2.392585	127.537000
68.746293	2.404229	127.583000
68.771795	2.403868	127.741000
68.796536	2.408365	127.788000
68.821561	2.411245	127.834000
68.845710	2.416816	127.880000
68.870243	2.422998	127.926000
68.895452	2.428720	127.972000
69.095384	2.433247	128.018000
69.120685	2.475683	128.389000
69.146386	2.480271	128.434000
69.171519	2.485313	128.481000
69.196267	2.490031	128.527000
69.221446	2.497077	128.573000
69.246525	2.502828	128.618000
69.341600	2.524980	128.664000
69.367155	2.527800	128.842000
69.391604	2.533241	128.888000
69.416045	2.538932	128.934000
69.441139	2.545425	128.980000
69.467055	2.549088	129.027000
69.492188	2.554179	129.073000
69.577090	2.559507	129.119000
69.602691	2.575387	129.276000
69.626595	2.578447	129.322000
69.651159	2.582493	129.368000
69.676629	2.585856	129.413000
69.700709	2.589860	129.460000
69.726111	2.594607	129.506000
69.751981	2.597639	129.552000
69.777106	2.602494	129.598000
69.801424	2.604421	129.644000
69.827010	2.610756	129.690000
69.852043	2.614565	129.737000
69.936914	2.628938	129.783000
69.962200	2.628133	129.941000
69.986411	2.631736	129.988000
70.012005	2.635674	130.034000
70.037713	2.637877	130.079000
70.062562	2.640148	130.126000
70.087341	2.641325	130.172000
70.173080	2.643617	130.218000
70.197506	2.649062	130.376000
70.222385	2.651094	130.422000
70.248094	2.651705	130.469000
70.272374	2.653737	130.515000
70.297675	2.655818	130.561000
70.323354	2.658761	130.607000
70.348755	2.660362	130.654000
70.373457	2.660362	130.700000
70.397775	2.662965	130.745000
70.422624	2.664867	130.792000
70.447226	2.667449	130.838000
70.533404	2.676688	130.884000
70.557999	2.676798	131.042000
70.583008	2.679390	131.087000
70.609047	2.682918	131.134000
70.633742	2.685201	131.180000
70.657530	2.687532	131.226000
70.682455	2.691481	131.272000
70.767603	2.692467	131.318000
70.793174	2.700110	131.476000
70.818329	2.700790	131.522000
70.843093	2.703082	131.568000
70.868157	2.705330	131.613000
70.893458	2.706255	131.660000
70.917692	2.706736	131.705000
70.941718	2.708062	131.752000
70.967604	2.709483	131.798000
70.992567	2.709844	131.844000
71.017346	2.713332	131.891000
71.042686	2.714868	131.937000
71.243709	2.748039	131.983000
71.267958	2.749296	132.354000
71.364508	2.754355	132.400000
71.389456	2.770225	132.576000
71.414105	2.774829	132.622000
71.439514	2.778778	132.667000
71.464370	2.783172	132.714000
71.488880	2.786230	132.760000
71.513329	2.791555	132.807000
71.539268	2.794242	132.853000
71.563940	2.799848	132.899000
71.588680	2.804863	132.945000
71.614481	2.808872	132.991000
71.639314	2.813440	133.036000
71.724931	2.830686	133.084000
71.749518	2.832522	133.241000
71.774420	2.837793	133.288000
71.798892	2.843785	133.334000
71.824701	2.849877	133.380000
71.849634	2.855393	133.426000
71.874636	2.862574	133.473000
72.074820	2.870000	133.519000
72.099945	2.929133	133.888000
72.124801	2.937592	133.933000
72.149903	2.946658	133.979000
72.173914	2.953624	134.026000
72.198524	2.963467	134.072000
72.223964	2.972922	134.118000
72.320199	3.006881	134.165000
72.344587	3.012011	134.341000
72.370219	3.019746	134.388000
72.395205	3.027591	134.434000
72.420330	3.034558	134.480000
72.444979	3.040919	134.526000
72.471072	3.048841	134.572000
72.555497	3.056623	134.619000
72.580054	3.079710	134.775000
72.605594	3.087892	134.822000
72.629912	3.094133	134.868000
72.655674	3.102851	134.915000
72.681053	3.108642	134.961000
72.705655	3.115558	135.007000
72.730211	3.119156	135.053000
72.756251	3.125227	135.099000
72.780407	3.131228	135.145000
72.804403	3.137704	135.191000
72.830596	3.145606	135.237000
72.915367	3.171150	135.284000
72.941184	3.175724	135.441000
72.966370	3.181020	135.488000
72.990565	3.189757	135.533000
73.015913	3.197165	135.579000
73.040047	3.206303	135.625000
73.064649	3.215416	135.671000
73.150881	3.224615	135.718000
73.176175	3.255153	135.876000
73.200708	3.264077	135.922000
73.226501	3.275257	135.968000
73.251388	3.286065	136.014000
73.276252	3.297450	136.060000
73.301546	3.309722	136.107000
73.325879	3.319973	136.153000
73.350159	3.329836	136.199000
73.374938	3.341679	136.244000
73.400654	3.354442	136.291000
73.426440	3.366931	136.337000
73.511619	3.423009	136.383000
73.537405	3.433509	136.541000
73.561807	3.450159	136.588000
73.586963	3.465195	136.634000
73.612526	3.479898	136.680000
73.636245	3.494637	136.727000
73.661231	3.509826	136.773000
73.746940	3.525726	136.819000
73.772073	3.587623	136.976000
73.797805	3.604510	137.023000
73.822361	3.620249	137.069000
73.846533	3.636014	137.115000
73.872403	3.651283	137.161000
73.897060	3.667124	137.207000
73.921224	3.682182	137.253000
73.946472	3.696998	137.299000
73.972004	3.711721	137.345000
73.997859	3.725732	137.392000
74.022515	3.740999	137.438000
74.222784	3.854570	137.484000
74.248163	3.864760	137.854000
74.342784	3.878783	137.900000
74.367948	3.943096	138.076000
74.392735	3.959951	138.122000
74.417214	3.975411	138.169000
74.442347	3.988684	138.215000
74.467618	4.004628	138.260000
74.492243	4.020088	138.307000
74.517391	4.035247	138.353000
74.542946	4.049510	138.399000
74.567610	4.063894	138.445000
74.592720	4.078662	138.491000
74.616976	4.094253	138.537000
74.702078	4.146791	138.583000
74.727341	4.156285	138.741000
74.752597	4.172093	138.787000
74.777461	4.187838	138.833000
74.802470	4.202771	138.879000
74.828387	4.217817	138.925000
74.852805	4.232218	138.971000
75.054288	4.245851	139.017000
75.080258	4.370010	139.389000
75.104576	4.386751	139.435000
75.128541	4.404322	139.480000
75.153696	4.421243	139.526000
75.178291	4.439436	139.573000
75.203531	4.457633	139.618000
75.300097	4.530354	139.664000
75.325122	4.544751	139.842000
75.350232	4.564856	139.888000
75.374949	4.584194	139.934000
75.400620	4.601290	139.980000
75.424892	4.621809	140.026000
75.449279	4.641743	140.072000
75.534366	4.663665	140.118000
75.559506	4.733282	140.276000
75.585238	4.755466	140.322000
75.610340	4.777411	140.369000
75.634819	4.797835	140.414000
75.660151	4.819656	140.460000
75.685561	4.840766	140.507000
75.709433	4.862806	140.553000
75.734873	4.884621	140.600000
75.760428	4.909179	140.646000
75.785315	4.931445	140.692000
75.810186	4.954696	140.738000
75.895818	5.034561	140.784000
75.920659	5.055373	140.942000
75.946091	5.077936	140.988000
75.970717	5.101953	141.034000
75.995135	5.127630	141.080000
76.020728	5.152915	141.127000
76.045838	5.180163	141.173000
76.130348	5.209255	141.219000
76.156149	5.296571	141.376000
76.181497	5.321619	141.422000
76.205508	5.346057	141.468000
76.230763	5.372237	141.514000
76.255396	5.398335	141.561000
76.279807	5.425725	141.606000
76.305201	5.451800	141.652000
76.330341	5.479561	141.698000
76.355297	5.506949	141.744000
76.380114	5.534185	141.791000
76.406284	5.562003	141.837000
76.491148	5.658284	141.884000
76.516603	5.683283	142.041000
76.541290	5.711234	142.088000
76.565793	5.738503	142.134000
76.591294	5.765920	142.181000
76.616296	5.794817	142.226000
76.641505	5.826319	142.273000
76.727099	5.859990	142.318000
76.751855	5.974187	142.476000
76.775782	6.009903	142.522000
76.800914	6.047053	142.568000
76.825686	6.082620	142.614000
76.850580	6.116663	142.660000
76.876104	6.151190	142.706000
76.901375	6.188875	142.752000
76.926500	6.226576	142.799000
76.951786	6.265672	142.845000
76.976281	6.304425	142.891000
77.000738	6.343194	142.937000
77.202398	6.650892	142.983000
77.227492	6.686284	143.354000
77.321706	6.726112	143.400000
77.346547	6.883770	143.576000
77.371864	6.924272	143.623000
77.396720	6.964250	143.669000
77.422337	7.003798	143.715000
77.447108	7.043865	143.760000
77.472571	7.085468	143.807000
77.497296	7.126471	143.853000
77.522122	7.170437	143.899000
77.546086	7.214713	143.944000
77.571211	7.263975	143.991000
77.596405	7.312891	144.037000
77.682437	7.482905	144.083000
77.707762	7.529425	144.242000
77.733494	7.577713	144.288000
77.758811	7.625281	144.335000
77.782952	7.672476	144.381000
77.808692	7.719664	144.427000
77.833163	7.766466	144.473000
78.032557	7.812838	144.519000
78.057597	8.153688	144.888000
78.082115	8.197598	144.935000
78.107586	8.242014	144.980000
78.132350	8.286882	145.027000
78.158074	8.329876	145.072000
78.183314	8.372340	145.119000
78.278635	8.537918	145.165000
78.303990	8.580787	145.341000
78.328631	8.626904	145.388000
78.352749	8.673618	145.434000
78.377736	8.721078	145.480000
78.402584	8.766655	145.525000
78.427571	8.814141	145.571000
78.513864	8.859281	145.618000
78.538436	9.029095	145.776000
78.563968	9.077427	145.822000
78.589331	9.124505	145.868000
78.613849	9.172485	145.915000
78.638082	9.220776	145.961000
78.663100	9.269086	146.007000
78.688893	9.318418	146.053000
78.713480	9.367616	146.099000
78.738421	9.419157	146.144000
78.763661	9.471705	146.191000
78.788401	9.526520	146.237000
78.874533	9.711792	146.283000
78.898659	9.764701	146.441000
78.923323	9.820819	146.488000
78.949301	9.874316	146.534000
78.974057	9.932469	146.580000
78.998936	9.989688	146.625000
79.024199	10.044602	146.672000
79.109693	10.098196	146.718000
79.134587	10.291039	146.875000
79.159566	10.349333	146.921000
79.182985	10.410624	146.967000
79.208310	10.471522	147.013000
79.234196	10.533407	147.060000
79.259512	10.593748	147.106000
79.283969	10.654778	147.152000
79.309616	10.716630	147.198000
79.334457	10.777979	147.244000
79.358691	10.841222	147.291000
79.383324	10.901954	147.337000
79.469363	11.132778	147.383000
79.494135	11.202374	147.542000
79.520251	11.275639	147.587000
79.545268	11.350653	147.633000
79.570162	11.425955	147.680000
79.595625	11.502123	147.726000
79.620604	11.574964	147.773000
79.704838	11.646600	147.819000
79.729909	11.883899	147.976000
79.754565	11.957066	148.022000
79.779690	12.030685	148.068000
79.805929	12.104873	148.115000
79.830186	12.174618	148.161000
79.855042	12.241191	148.207000
79.880574	12.305490	148.253000
79.905207	12.373666	148.299000
79.929487	12.443691	148.345000
79.954796	12.517063	148.391000
79.980251	12.594548	148.437000
80.179537	13.231083	148.483000
80.205569	13.309229	148.854000
80.300728	13.387528	148.900000
80.325661	13.693460	149.076000
80.350955	13.771386	149.122000
80.376533	13.849879	149.169000
80.401881	13.927923	149.215000
80.425930	14.004860	149.261000
80.451055	14.081336	149.307000
80.475051	14.161335	149.353000
80.500437	14.237076	149.399000
80.525984	14.313387	149.445000
80.550425	14.389359	149.491000
80.575873	14.468708	149.537000
80.661666	14.745771	149.584000
80.686983	14.822480	149.742000
80.711063	14.902816	149.787000
80.736058	14.986533	149.834000
80.760445	15.073503	149.880000
80.785416	15.165403	149.926000
80.811125	15.261948	149.971000
81.011025	15.362303	150.018000
81.036458	16.107760	150.388000
81.062113	16.204947	150.435000
81.087207	16.299763	150.480000
81.111809	16.393001	150.526000
81.135966	16.485665	150.573000
81.160960	16.576878	150.619000
81.256374	16.992003	150.665000
81.281552	17.107563	150.841000
81.306616	17.225328	150.887000
81.331349	17.339954	150.933000
81.356205	17.454053	150.979000
81.381760	17.560303	151.024000
81.407223	17.669438	151.071000
81.492233	17.781913	151.118000
81.517949	18.156679	151.277000
81.542306	18.257569	151.323000
81.567246	18.361485	151.369000
81.592740	18.469109	151.415000
81.617358	18.580544	151.461000
81.642705	18.693278	151.508000
81.667915	18.803800	151.554000
81.693647	18.916484	151.600000
81.717796	19.031306	151.646000
81.743389	19.144650	151.693000
81.767615	19.257281	151.739000
81.852433	19.606789	151.784000
81.877581	19.707415	151.942000
81.902767	19.813808	151.988000
81.927869	19.919050	152.035000
81.953747	20.023091	152.081000
81.978949	20.126178	152.127000
82.002706	20.226034	152.172000
82.087916	20.327769	152.218000
82.112480	20.654244	152.376000
82.137896	20.762447	152.422000
82.163290	20.868776	152.468000
82.187747	20.981461	152.514000
82.213340	21.098214	152.561000
82.238289	21.219173	152.606000
82.262837	21.340573	152.652000
82.286940	21.462910	152.699000
82.311919	21.585271	152.745000
82.337513	21.710817	152.791000
82.362445	21.838769	152.837000
82.448439	22.274016	152.884000
82.473272	22.401692	153.041000
82.498735	22.537256	153.088000
82.524036	22.673942	153.133000
82.547993	22.811172	153.180000
82.573064	22.942679	153.226000
82.598182	23.077389	153.271000
82.683629	23.213199	153.318000
82.709499	23.649353	153.476000
82.735301	23.773516	153.523000
82.759634	23.898167	153.570000
82.784997	24.022334	153.615000
82.810975	24.151421	153.662000
82.835032	24.283139	153.708000
82.859135	24.418966	153.754000
82.884121	24.562065	153.800000
82.909592	24.708778	153.846000
82.934095	24.851666	153.891000
82.959880	24.991210	153.938000
83.159596	26.065708	153.984000
83.184606	26.199426	154.354000
83.280634	26.329157	154.400000
83.305544	26.855842	154.576000
83.330661	26.999926	154.622000
83.356039	27.150550	154.669000
83.381241	27.301506	154.716000
83.405167	27.460669	154.762000
83.430231	27.623944	154.808000
83.455663	27.784234	154.854000
83.480849	27.946383	154.901000
83.505605	28.108112	154.947000
83.531230	28.264597	154.993000
83.556255	28.418903	155.040000
83.640051	28.893940	155.086000
83.665406	29.027640	155.242000
83.689824	29.171749	155.288000
83.715079	29.323208	155.335000
83.740589	29.478724	155.381000
83.765483	29.639873	155.426000
83.790408	29.804045	155.472000
83.991123	29.970135	155.518000
84.016087	31.381390	155.889000
84.040973	31.560310	155.934000
84.066444	31.743710	155.981000
84.090854	31.925486	156.027000
84.115119	32.109910	156.073000
84.140758	32.294036	156.119000
84.236049	33.000233	156.166000
84.261181	33.179811	156.342000
84.286006	33.362850	156.388000
84.311477	33.549661	156.434000
84.336195	33.740798	156.480000
84.361212	33.930502	156.526000
84.386206	34.113195	156.571000
84.470632	34.292467	156.618000
84.496095	34.920596	156.776000
84.521827	35.116016	156.823000
84.546791	35.306655	156.870000
84.572738	35.497124	156.916000
84.597524	35.689552	156.962000
84.609572	35.981667	157.007000
84.647275	36.078249	157.054000
84.672707	36.273100	157.100000
84.696679	36.463872	157.146000
84.721520	36.650555	157.193000
84.747221	36.842534	157.238000
84.832154	37.510541	157.285000
84.857825	37.704467	157.442000
84.882750	37.907055	157.488000
84.907513	38.105364	157.534000
84.931732	38.299628	157.580000
84.957256	38.496055	157.625000
84.981482	38.698256	157.672000
85.067260	38.895255	157.719000
85.092854	39.567826	157.876000
85.117295	39.767119	157.922000
85.143203	39.967199	157.969000
85.168567	40.168329	158.015000
85.192232	40.360024	158.061000
85.217572	40.549302	158.107000
85.241967	40.746626	158.154000
85.266961	40.950845	158.199000
